# === DATA DESCRIPTION FILE ======================================================
#
# CAUTION - Investigational device.
# Limited by Federal Law to investigational use.
#
# Dataset name: 
# Exported by the GyroTools parfile exporter, Zuerich Switzerland (http://www.gyrotools.ch/)
# CLINICAL TRYOUT             Research image export tool     V4.2
#
# === GENERAL INFORMATION ========================================================
#
.    Patient name                       :   Recframe
.    Examination name                   :   
.    Protocol name                      :   WIP Normal FFE
.    Examination date/time              :   02.09.2020 / 12:08:36
.    Series Type                        :   Image   MRSERIES
.    Acquisition nr                     :   2
.    Reconstruction nr                  :   1
.    Scan Duration [sec]                :   0.29
.    Max. number of cardiac phases      :   1
.    Max. number of echoes              :   1
.    Max. number of slices/locations    :   1
.    Max. number of dynamics            :   1
.    Max. number of mixes               :   1
.    Patient Position                   :   N.A.
.    Preparation direction              :   RL
.    Technique                          :   T1TFE
.    Scan resolution  (x, y)            :   320  213
.    Scan mode                          :   MS
.    Repetition time [msec]             :   2.90
.    FOV (ap,fh,rl) [mm]                :   8.00  320.00 232.50
.    Water Fat shift [pixels]           :   0.33
.    Angulation midslice(ap,fh,rl)[degr]:   0.00   0.75   1.85  
.    Off Centre midslice(ap,fh,rl) [mm] :   -40.89 9.11   2.21  
.    Flow compensation <0=no 1=yes> ?   :   0
.    Presaturation     <0=no 1=yes> ?   :   0
.    Phase encoding velocity [cm/sec]   :   0.00  0.00  0.00 
.    MTC               <0=no 1=yes> ?   :   0
.    SPIR              <0=no 1=yes> ?   :   0
.    EPI factor        <0,1=no EPI>     :   1
.    Dynamic scan      <0=no 1=yes> ?   :   0
.    Diffusion         <0=no 1=yes> ?   :   0
.    Diffusion echo time [msec]         :   0.00
.    Max. number of diffusion values    :   1
.    Max. number of gradient orients    :   1
.    Number of label types   <0=no ASL> :   0
#
# === PIXEL VALUES =============================================================
#  PV = pixel value in REC file, FP = floating point value, DV = displayed value on console
#  RS = rescale slope,           RI = rescale intercept,    SS = scale slope
#  DV = PV * RS + RI             FP = PV /  SS
#
# === IMAGE INFORMATION DEFINITION =============================================
#  The rest of this file contains ONE line per image, this line contains the following information:
#  
#  slice number                             (integer)
#  echo number                              (integer)
#  dynamic scan number                      (integer)
#  cardiac phase number                     (integer)
#  image_type_mr                            (integer)
#  scanning sequence                        (integer)
#  index in REC file (in images)            (integer)
#  image pixel size (in bits)               (integer)
#  scan percentage                          (integer)
#  recon resolution (x,y)                   (2*integer)
#  rescale intercept                        (float)
#  rescale slope                            (float)
#  scale slope                              (float)
#  window center                            (integer)
#  window width                             (integer)
#  image angulation (ap,fh,rl in degrees )  (3*float)
#  image offcentre (ap,fh,rl in mm )        (3*float)
#  slice thickness                          (float)
#  slice gap                                (float)
#  image_display_orientation                (integer)
#  slice orientation ( TRA/SAG/COR )        (integer)
#  fmri_status_indication                   (integer)
#  image_type_ed_es  (end diast/end syst)   (integer)
#  pixel spacing (x,y) (in mm)              (2*float)
#  echo_time                                (float)
#  dyn_scan_begin_time                      (float)
#  trigger_time                             (float)
#  diffusion_b_factor                       (float)
#  number of averages                       (integer)
#  image_flip_angle (in degrees)            (float)
#  cardiac frequency                        (integer)
#  min. RR. interval                        (integer)
#  max. RR. interval                        (integer)
#  turbo factor                             (integer)
#  inversion delay                          (float)
#  diffusion b value number    (imagekey!)  (integer)
#  gradient orientation number (imagekey!)  (integer)
#  contrast type                            (string)
#  diffusion anisotropy type                (string)
#  diffusion (ap, fh, rl)                   (3*float)
#  label type (ASL)            (imagekey!)  (integer)
#
# === IMAGE INFORMATION ==========================================================
#sl ec dyn ph ty  idx pix % rec size (re)scale     window       angulation      offcentre         thick  gap   info   spacing   echo  dtime ttime    diff avg  flip  freq RR_int  turbo  delay b grad cont anis diffusion

1    1   1   1   0   2   0     16 66   512  512             0       2.6652   0.00706274   1070   1860   0.00   0.75   1.85 -40.890   9.109   2.208  8.00  0.00 0 3 0 2 0.625 0.625    1.459      0.00   0.00   0.00 1 12.0     0     0     0  97 0.00   1   1      7      0  0.000  0.000  0.000   0 

# === END OF DATA DESCRIPTION FILE ===============================================
