# === DATA DESCRIPTION FILE ======================================================
#
# CAUTION - Investigational device.
# Limited by Federal Law to investigational use.
#
# Dataset name: rf_12102012_1332440_1_1_wipsurveyV42
# Exported by Pati IBT Zuerich Switzerland (http://www.mr.ethz.ch/)
# CLINICAL TRYOUT             Research image export tool     V4.2
#
# === GENERAL INFORMATION ========================================================
#
.    Patient name                       :   rf
.    Examination name                   :   rfr test2
.    Protocol name                      :   WIP SURVEY
.    Examination date/time              :   2012.10.12 / 13:32:44
.    Series_data_type                   :   Image   MRSERIES
.    Acquisition nr                     :   1
.    Reconstruction nr                  :   1
.    Scan Duration [sec]                :   23.11
.    Max. number of cardiac phases      :   1
.    Max. number of echoes              :   1
.    Max. number of slices/locations    :   60
.    Max. number of dynamics            :   1
.    Max. number of mixes               :   1
.    Patient Position                   :   HFS
.    Preparation direction              :   AP
.    Technique                          :   TFE
.    Scan resolution  (x, y)            :   192  96
.    Scan mode                          :   MS
.    Repetition time [msec]             :   3.85
.    FOV (ap,fh,rl) [mm]                :   450.00  200.00  450.00
.    Water Fat shift [pixels]           :   0.97
.    Angulation midslice(ap,fh,rl)[degr]:   0.00     0.00     0.00
.    Off Centre midslice(ap,fh,rl) [mm] :   0.00     0.00     0.00
.    Flow compensation <0=no 1=yes> ?   :   0
.    Presaturation     <0=no 1=yes> ?   :   0
.    Phase encoding velocity [cm/sec]   :   0.00     0.00     0.00
.    MTC               <0=no 1=yes> ?   :   0
.    SPIR              <0=no 1=yes> ?   :   0
.    EPI factor        <0,1=no EPI>     :   1
.    Dynamic scan      <0=no 1=yes> ?   :   0
.    Diffusion         <0=no 1=yes> ?   :   0
.    Diffusion echo time [msec]         :   0.00
.    Max. number of diffusion values    :   1
.    Max. number of gradient orients    :   1
.    Number of label types   <0=no ASL> :   0
#
# === PIXEL VALUES =============================================================
#  PV = pixel value in REC file, FP = floating point value, DV = displayed value on console
#  RS = rescale slope,           RI = rescale intercept,    SS = scale slope
#  DV = PV * RS + RI             FP = PV /  SS
#
# === IMAGE INFORMATION DEFINITION =============================================
#  The rest of this file contains ONE line per image, this line contains the following information:
#  
#  slice number                             (integer)
#  echo number                              (integer)
#  dynamic scan number                      (integer)
#  cardiac phase number                     (integer)
#  image_type_mr                            (integer)
#  scanning sequence                        (integer)
#  index in REC file (in images)            (integer)
#  image pixel size (in bits)               (integer)
#  scan percentage                          (integer)
#  recon resolution (x,y)                   (2*integer)
#  rescale intercept                        (float)
#  rescale slope                            (float)
#  scale slope                              (float)
#  window center                            (integer)
#  window width                             (integer)
#  image angulation (ap,fh,rl in degrees )  (3*float)
#  image offcentre (ap,fh,rl in mm )        (3*float)
#  slice thickness                          (float)
#  slice gap                                (float)
#  image_display_orientation                (integer)
#  slice orientation ( TRA/SAG/COR )        (integer)
#  fmri_status_indication                   (integer)
#  image_type_ed_es  (end diast/end syst)   (integer)
#  pixel spacing (x,y) (in mm)              (2*float)
#  echo_time                                (float)
#  dyn_scan_begin_time                      (float)
#  trigger_time                             (float)
#  diffusion_b_factor                       (float)
#  number of averages                       (float)
#  image_flip_angle (in degrees)            (float)
#  cardiac frequency                        (integer)
#  min. RR. interval                        (integer)
#  max. RR. interval                        (integer)
#  turbo factor                             (integer)
#  inversion delay                          (float)
#  diffusion b value number    (imagekey!)  (integer)
#  gradient orientation number (imagekey!)  (integer)
#  contrast type                            (string)
#  diffusion anisotropy type                (string)
#  diffusion (ap, fh, rl)                   (3*float)
#  label type (ASL)            (imagekey!)  (integer)
#
# === IMAGE INFORMATION ==========================================================
#sl   ec  dyn ph  ty   idx    pix %   rec size       (re)scale                   window       angulation        offcentre             thick  gap     info     spacing      echo  dtime ttime diff   avg flip    freq  RR_int turbo delay b grad cont      anis              diffusion      L.ty

 1    1   1   1   0  2 0      16  50  256  256        0   1.2862 7.25834e-03   1070   1860  0.00  0.00  0.00  -0.000 -95.000  -0.000 10.00  0.00    0 1 0 2 1.758  1.758  1.8   0.0   0.0   0        1 20.0     0    0     0  96 0.00   1    1 7          0            0       0       0  0
 2    1   1   1   0  2 1      16  50  256  256        0   1.2862 7.25834e-03   1809   3145  0.00  0.00  0.00  -0.000 -85.000  -0.000 10.00  0.00    0 1 0 2 1.758  1.758  1.8   0.0   0.0   0        1 20.0     0    0     0  96 0.00   1    1 7          0            0       0       0  0
 3    1   1   1   0  2 2      16  50  256  256        0   1.2862 7.25834e-03   2529   4396  0.00  0.00  0.00  -0.000 -75.000  -0.000 10.00  0.00    0 1 0 2 1.758  1.758  1.8   0.0   0.0   0        1 20.0     0    0     0  96 0.00   1    1 7          0            0       0       0  0
 4    1   1   1   0  2 3      16  50  256  256        0   1.2862 7.25834e-03   3334   5796  0.00  0.00  0.00  -0.000 -65.000  -0.000 10.00  0.00    0 1 0 2 1.758  1.758  1.8   0.0   0.0   0        1 20.0     0    0     0  96 0.00   1    1 7          0            0       0       0  0
 5    1   1   1   0  2 4      16  50  256  256        0   1.2862 7.25834e-03   4172   7252  0.00  0.00  0.00  -0.000 -55.000  -0.000 10.00  0.00    0 1 0 2 1.758  1.758  1.8   0.0   0.0   0        1 20.0     0    0     0  96 0.00   1    1 7          0            0       0       0  0
 6    1   1   1   0  2 5      16  50  256  256        0   1.2862 7.25834e-03   4832   8399  0.00  0.00  0.00  -0.000 -45.000  -0.000 10.00  0.00    0 1 0 2 1.758  1.758  1.8   0.0   0.0   0        1 20.0     0    0     0  96 0.00   1    1 7          0            0       0       0  0
 7    1   1   1   0  2 6      16  50  256  256        0   1.2862 7.25834e-03   5479   9524  0.00  0.00  0.00  -0.000 -35.000  -0.000 10.00  0.00    0 1 0 2 1.758  1.758  1.8   0.0   0.0   0        1 20.0     0    0     0  96 0.00   1    1 7          0            0       0       0  0
 8    1   1   1   0  2 7      16  50  256  256        0   1.2862 7.25834e-03   6061  10535  0.00  0.00  0.00  -0.000 -25.000  -0.000 10.00  0.00    0 1 0 2 1.758  1.758  1.8   0.0   0.0   0        1 20.0     0    0     0  96 0.00   1    1 7          0            0       0       0  0
 9    1   1   1   0  2 8      16  50  256  256        0   1.2862 7.25834e-03   6489  11280  0.00  0.00  0.00  -0.000 -15.000  -0.000 10.00  0.00    0 1 0 2 1.758  1.758  1.8   0.0   0.0   0        1 20.0     0    0     0  96 0.00   1    1 7          0            0       0       0  0
 10   1   1   1   0  2 9      16  50  256  256        0   1.2862 7.25834e-03   6903  12000  0.00  0.00  0.00  -0.000  -5.000  -0.000 10.00  0.00    0 1 0 2 1.758  1.758  1.8   0.0   0.0   0        1 20.0     0    0     0  96 0.00   1    1 7          0            0       0       0  0
 11   1   1   1   0  2 10     16  50  256  256        0   1.2862 7.25834e-03   6946  12074  0.00  0.00  0.00  -0.000   5.000  -0.000 10.00  0.00    0 1 0 2 1.758  1.758  1.8   0.0   0.0   0        1 20.0     0    0     0  96 0.00   1    1 7          0            0       0       0  0
 12   1   1   1   0  2 11     16  50  256  256        0   1.2862 7.25834e-03   6720  11681  0.00  0.00  0.00  -0.000  15.000  -0.000 10.00  0.00    0 1 0 2 1.758  1.758  1.8   0.0   0.0   0        1 20.0     0    0     0  96 0.00   1    1 7          0            0       0       0  0
 13   1   1   1   0  2 12     16  50  256  256        0   1.2862 7.25834e-03   6522  11337  0.00  0.00  0.00  -0.000  25.000  -0.000 10.00  0.00    0 1 0 2 1.758  1.758  1.8   0.0   0.0   0        1 20.0     0    0     0  96 0.00   1    1 7          0            0       0       0  0
 14   1   1   1   0  2 13     16  50  256  256        0   1.2862 7.25834e-03   6237  10841  0.00  0.00  0.00  -0.000  35.000  -0.000 10.00  0.00    0 1 0 2 1.758  1.758  1.8   0.0   0.0   0        1 20.0     0    0     0  96 0.00   1    1 7          0            0       0       0  0
 15   1   1   1   0  2 14     16  50  256  256        0   1.2862 7.25834e-03   5971  10379  0.00  0.00  0.00  -0.000  45.000  -0.000 10.00  0.00    0 1 0 2 1.758  1.758  1.8   0.0   0.0   0        1 20.0     0    0     0  96 0.00   1    1 7          0            0       0       0  0
 16   1   1   1   0  2 15     16  50  256  256        0   1.2862 7.25834e-03   5616   9763  0.00  0.00  0.00  -0.000  55.000  -0.000 10.00  0.00    0 1 0 2 1.758  1.758  1.8   0.0   0.0   0        1 20.0     0    0     0  96 0.00   1    1 7          0            0       0       0  0
 17   1   1   1   0  2 16     16  50  256  256        0   1.2862 7.25834e-03   5156   8963  0.00  0.00  0.00  -0.000  65.000  -0.000 10.00  0.00    0 1 0 2 1.758  1.758  1.8   0.0   0.0   0        1 20.0     0    0     0  96 0.00   1    1 7          0            0       0       0  0
 18   1   1   1   0  2 17     16  50  256  256        0   1.2862 7.25834e-03   4678   8132  0.00  0.00  0.00  -0.000  75.000  -0.000 10.00  0.00    0 1 0 2 1.758  1.758  1.8   0.0   0.0   0        1 20.0     0    0     0  96 0.00   1    1 7          0            0       0       0  0
 19   1   1   1   0  2 18     16  50  256  256        0   1.2862 7.25834e-03   3888   6759  0.00  0.00  0.00  -0.000  85.000  -0.000 10.00  0.00    0 1 0 2 1.758  1.758  1.8   0.0   0.0   0        1 20.0     0    0     0  96 0.00   1    1 7          0            0       0       0  0
 20   1   1   1   0  2 19     16  50  256  256        0   1.2862 7.25834e-03   2498   4342  0.00  0.00  0.00  -0.000  95.000  -0.000 10.00  0.00    0 1 0 2 1.758  1.758  1.8   0.0   0.0   0        1 20.0     0    0     0  96 0.00   1    1 7          0            0       0       0  0
 21   1   1   1   0  2 20     16  50  256  256        0   1.2862 7.25834e-03     25     43  0.00  0.00  0.00 -95.000   0.000  -0.000 10.00  0.00    0 3 0 2 1.758  1.758  1.8   0.0   0.0   0        1 20.0     0    0     0  96 0.00   1    1 7          0            0       0       0  0
 22   1   1   1   0  2 21     16  50  256  256        0   1.2862 7.25834e-03     24     42  0.00  0.00  0.00 -85.000   0.000  -0.000 10.00  0.00    0 3 0 2 1.758  1.758  1.8   0.0   0.0   0        1 20.0     0    0     0  96 0.00   1    1 7          0            0       0       0  0
 23   1   1   1   0  2 22     16  50  256  256        0   1.2862 7.25834e-03     23     41  0.00  0.00  0.00 -75.000   0.000  -0.000 10.00  0.00    0 3 0 2 1.758  1.758  1.8   0.0   0.0   0        1 20.0     0    0     0  96 0.00   1    1 7          0            0       0       0  0
 24   1   1   1   0  2 23     16  50  256  256        0   1.2862 7.25834e-03    120    209  0.00  0.00  0.00 -65.000   0.000  -0.000 10.00  0.00    0 3 0 2 1.758  1.758  1.8   0.0   0.0   0        1 20.0     0    0     0  96 0.00   1    1 7          0            0       0       0  0
 25   1   1   1   0  2 24     16  50  256  256        0   1.2862 7.25834e-03   3480   6049  0.00  0.00  0.00 -55.000   0.000  -0.000 10.00  0.00    0 3 0 2 1.758  1.758  1.8   0.0   0.0   0        1 20.0     0    0     0  96 0.00   1    1 7          0            0       0       0  0
 26   1   1   1   0  2 25     16  50  256  256        0   1.2862 7.25834e-03   4323   7514  0.00  0.00  0.00 -45.000   0.000  -0.000 10.00  0.00    0 3 0 2 1.758  1.758  1.8   0.0   0.0   0        1 20.0     0    0     0  96 0.00   1    1 7          0            0       0       0  0
 27   1   1   1   0  2 26     16  50  256  256        0   1.2862 7.25834e-03   5362   9320  0.00  0.00  0.00 -35.000   0.000  -0.000 10.00  0.00    0 3 0 2 1.758  1.758  1.8   0.0   0.0   0        1 20.0     0    0     0  96 0.00   1    1 7          0            0       0       0  0
 28   1   1   1   0  2 27     16  50  256  256        0   1.2862 7.25834e-03   6167  10719  0.00  0.00  0.00 -25.000   0.000  -0.000 10.00  0.00    0 3 0 2 1.758  1.758  1.8   0.0   0.0   0        1 20.0     0    0     0  96 0.00   1    1 7          0            0       0       0  0
 29   1   1   1   0  2 28     16  50  256  256        0   1.2862 7.25834e-03   6721  11683  0.00  0.00  0.00 -15.000   0.000  -0.000 10.00  0.00    0 3 0 2 1.758  1.758  1.8   0.0   0.0   0        1 20.0     0    0     0  96 0.00   1    1 7          0            0       0       0  0
 30   1   1   1   0  2 29     16  50  256  256        0   1.2862 7.25834e-03   6904  12001  0.00  0.00  0.00  -5.000   0.000  -0.000 10.00  0.00    0 3 0 2 1.758  1.758  1.8   0.0   0.0   0        1 20.0     0    0     0  96 0.00   1    1 7          0            0       0       0  0
 31   1   1   1   0  2 30     16  50  256  256        0   1.2862 7.25834e-03   6149  10690  0.00  0.00  0.00   5.000   0.000  -0.000 10.00  0.00    0 3 0 2 1.758  1.758  1.8   0.0   0.0   0        1 20.0     0    0     0  96 0.00   1    1 7          0            0       0       0  0
 32   1   1   1   0  2 31     16  50  256  256        0   1.2862 7.25834e-03   4488   7802  0.00  0.00  0.00  15.000   0.000  -0.000 10.00  0.00    0 3 0 2 1.758  1.758  1.8   0.0   0.0   0        1 20.0     0    0     0  96 0.00   1    1 7          0            0       0       0  0
 33   1   1   1   0  2 32     16  50  256  256        0   1.2862 7.25834e-03   3032   5270  0.00  0.00  0.00  25.000   0.000  -0.000 10.00  0.00    0 3 0 2 1.758  1.758  1.8   0.0   0.0   0        1 20.0     0    0     0  96 0.00   1    1 7          0            0       0       0  0
 34   1   1   1   0  2 33     16  50  256  256        0   1.2862 7.25834e-03   2346   4078  0.00  0.00  0.00  35.000   0.000  -0.000 10.00  0.00    0 3 0 2 1.758  1.758  1.8   0.0   0.0   0        1 20.0     0    0     0  96 0.00   1    1 7          0            0       0       0  0
 35   1   1   1   0  2 34     16  50  256  256        0   1.2862 7.25834e-03     40     70  0.00  0.00  0.00  45.000   0.000  -0.000 10.00  0.00    0 3 0 2 1.758  1.758  1.8   0.0   0.0   0        1 20.0     0    0     0  96 0.00   1    1 7          0            0       0       0  0
 36   1   1   1   0  2 35     16  50  256  256        0   1.2862 7.25834e-03     27     47  0.00  0.00  0.00  55.000   0.000  -0.000 10.00  0.00    0 3 0 2 1.758  1.758  1.8   0.0   0.0   0        1 20.0     0    0     0  96 0.00   1    1 7          0            0       0       0  0
 37   1   1   1   0  2 36     16  50  256  256        0   1.2862 7.25834e-03     25     43  0.00  0.00  0.00  65.000   0.000  -0.000 10.00  0.00    0 3 0 2 1.758  1.758  1.8   0.0   0.0   0        1 20.0     0    0     0  96 0.00   1    1 7          0            0       0       0  0
 38   1   1   1   0  2 37     16  50  256  256        0   1.2862 7.25834e-03     25     43  0.00  0.00  0.00  75.000   0.000  -0.000 10.00  0.00    0 3 0 2 1.758  1.758  1.8   0.0   0.0   0        1 20.0     0    0     0  96 0.00   1    1 7          0            0       0       0  0
 39   1   1   1   0  2 38     16  50  256  256        0   1.2862 7.25834e-03     24     42  0.00  0.00  0.00  85.000   0.000  -0.000 10.00  0.00    0 3 0 2 1.758  1.758  1.8   0.0   0.0   0        1 20.0     0    0     0  96 0.00   1    1 7          0            0       0       0  0
 40   1   1   1   0  2 39     16  50  256  256        0   1.2862 7.25834e-03     24     43  0.00  0.00  0.00  95.000   0.000  -0.000 10.00  0.00    0 3 0 2 1.758  1.758  1.8   0.0   0.0   0        1 20.0     0    0     0  96 0.00   1    1 7          0            0       0       0  0
 41   1   1   1   0  2 40     16  50  256  256        0   1.2862 7.25834e-03     28     48  0.00  0.00  0.00  -0.000   0.000 142.500 10.00  5.00    0 2 0 2 1.758  1.758  1.8   0.0   0.0   0        1 20.0     0    0     0  96 0.00   1    1 7          0            0       0       0  0
 42   1   1   1   0  2 41     16  50  256  256        0   1.2862 7.25834e-03     27     47  0.00  0.00  0.00  -0.000   0.000 127.500 10.00  5.00    0 2 0 2 1.758  1.758  1.8   0.0   0.0   0        1 20.0     0    0     0  96 0.00   1    1 7          0            0       0       0  0
 43   1   1   1   0  2 42     16  50  256  256        0   1.2862 7.25834e-03     35     61  0.00  0.00  0.00  -0.000   0.000 112.500 10.00  5.00    0 2 0 2 1.758  1.758  1.8   0.0   0.0   0        1 20.0     0    0     0  96 0.00   1    1 7          0            0       0       0  0
 44   1   1   1   0  2 43     16  50  256  256        0   1.2862 7.25834e-03   4540   7891  0.00  0.00  0.00  -0.000   0.000  97.500 10.00  5.00    0 2 0 2 1.758  1.758  1.8   0.0   0.0   0        1 20.0     0    0     0  96 0.00   1    1 7          0            0       0       0  0
 45   1   1   1   0  2 44     16  50  256  256        0   1.2862 7.25834e-03   6471  11249  0.00  0.00  0.00  -0.000   0.000  82.500 10.00  5.00    0 2 0 2 1.758  1.758  1.8   0.0   0.0   0        1 20.0     0    0     0  96 0.00   1    1 7          0            0       0       0  0
 46   1   1   1   0  2 45     16  50  256  256        0   1.2862 7.25834e-03   5695   9900  0.00  0.00  0.00  -0.000   0.000  67.500 10.00  5.00    0 2 0 2 1.758  1.758  1.8   0.0   0.0   0        1 20.0     0    0     0  96 0.00   1    1 7          0            0       0       0  0
 47   1   1   1   0  2 46     16  50  256  256        0   1.2862 7.25834e-03   5257   9138  0.00  0.00  0.00  -0.000   0.000  52.500 10.00  5.00    0 2 0 2 1.758  1.758  1.8   0.0   0.0   0        1 20.0     0    0     0  96 0.00   1    1 7          0            0       0       0  0
 48   1   1   1   0  2 47     16  50  256  256        0   1.2862 7.25834e-03   5041   8763  0.00  0.00  0.00  -0.000   0.000  37.500 10.00  5.00    0 2 0 2 1.758  1.758  1.8   0.0   0.0   0        1 20.0     0    0     0  96 0.00   1    1 7          0            0       0       0  0
 49   1   1   1   0  2 48     16  50  256  256        0   1.2862 7.25834e-03   5057   8791  0.00  0.00  0.00  -0.000   0.000  22.500 10.00  5.00    0 2 0 2 1.758  1.758  1.8   0.0   0.0   0        1 20.0     0    0     0  96 0.00   1    1 7          0            0       0       0  0
 50   1   1   1   0  2 49     16  50  256  256        0   1.2862 7.25834e-03   5140   8935  0.00  0.00  0.00  -0.000   0.000   7.500 10.00  5.00    0 2 0 2 1.758  1.758  1.8   0.0   0.0   0        1 20.0     0    0     0  96 0.00   1    1 7          0            0       0       0  0
 51   1   1   1   0  2 50     16  50  256  256        0   1.2862 7.25834e-03   5123   8906  0.00  0.00  0.00  -0.000   0.000  -7.500 10.00  5.00    0 2 0 2 1.758  1.758  1.8   0.0   0.0   0        1 20.0     0    0     0  96 0.00   1    1 7          0            0       0       0  0
 52   1   1   1   0  2 51     16  50  256  256        0   1.2862 7.25834e-03   5098   8862  0.00  0.00  0.00  -0.000   0.000 -22.500 10.00  5.00    0 2 0 2 1.758  1.758  1.8   0.0   0.0   0        1 20.0     0    0     0  96 0.00   1    1 7          0            0       0       0  0
 53   1   1   1   0  2 52     16  50  256  256        0   1.2862 7.25834e-03   5213   9062  0.00  0.00  0.00  -0.000   0.000 -37.500 10.00  5.00    0 2 0 2 1.758  1.758  1.8   0.0   0.0   0        1 20.0     0    0     0  96 0.00   1    1 7          0            0       0       0  0
 54   1   1   1   0  2 53     16  50  256  256        0   1.2862 7.25834e-03   5344   9289  0.00  0.00  0.00  -0.000   0.000 -52.500 10.00  5.00    0 2 0 2 1.758  1.758  1.8   0.0   0.0   0        1 20.0     0    0     0  96 0.00   1    1 7          0            0       0       0  0
 55   1   1   1   0  2 54     16  50  256  256        0   1.2862 7.25834e-03   5559   9664  0.00  0.00  0.00  -0.000   0.000 -67.500 10.00  5.00    0 2 0 2 1.758  1.758  1.8   0.0   0.0   0        1 20.0     0    0     0  96 0.00   1    1 7          0            0       0       0  0
 56   1   1   1   0  2 55     16  50  256  256        0   1.2862 7.25834e-03   5873  10210  0.00  0.00  0.00  -0.000   0.000 -82.500 10.00  5.00    0 2 0 2 1.758  1.758  1.8   0.0   0.0   0        1 20.0     0    0     0  96 0.00   1    1 7          0            0       0       0  0
 57   1   1   1   0  2 56     16  50  256  256        0   1.2862 7.25834e-03   5439   9455  0.00  0.00  0.00  -0.000   0.000 -97.500 10.00  5.00    0 2 0 2 1.758  1.758  1.8   0.0   0.0   0        1 20.0     0    0     0  96 0.00   1    1 7          0            0       0       0  0
 58   1   1   1   0  2 57     16  50  256  256        0   1.2862 7.25834e-03     34     59  0.00  0.00  0.00  -0.000   0.000 -112.500 10.00  5.00    0 2 0 2 1.758  1.758  1.8   0.0   0.0   0        1 20.0     0    0     0  96 0.00   1    1 7          0            0       0       0  0
 59   1   1   1   0  2 58     16  50  256  256        0   1.2862 7.25834e-03     26     46  0.00  0.00  0.00  -0.000   0.000 -127.500 10.00  5.00    0 2 0 2 1.758  1.758  1.8   0.0   0.0   0        1 20.0     0    0     0  96 0.00   1    1 7          0            0       0       0  0
 60   1   1   1   0  2 59     16  50  256  256        0   1.2862 7.25834e-03     27     46  0.00  0.00  0.00  -0.000   0.000 -142.500 10.00  5.00    0 2 0 2 1.758  1.758  1.8   0.0   0.0   0        1 20.0     0    0     0  96 0.00   1    1 7          0            0       0       0  0

# === END OF DATA DESCRIPTION FILE ===============================================
